t	s(t)
50	105.77
100	137.14
150	167.03
200	193.69
250	217.67
300	240.29
350	261.51
400	281.94
450	301.98
500	321.72
550	338.95
600	356.3
650	374.21
700	391.06
750	406.57
800	422.42
850	438.08
900	453.22
950	467.92
1000	481.88
1050	496.43
1100	510.57
1150	524.32
1200	538.39
1250	552.11
1300	564.76
1350	578.29
1400	591.58
1450	604.28
1500	616.27
1550	629.81
1600	642.2
1650	654.33
1700	666.95
1750	678.86
1800	690.75
1850	701.63
1900	712.61
1950	723.29
2000	734.28
2050	745.69
2100	756.03
2150	766.65
2200	777.02
2250	787.2
2300	797.37
2350	808.57
2400	820.27
2450	831.14
2500	841.4
2550	852.03
2600	860.59
2650	870.08
2700	879.85
2750	888.52
2800	898.36
2850	908.39
2900	917.05
2950	926.67
3000	935.8
3050	944.78
3100	954.38
3150	963.41
3200	972.3
3250	981.27
3300	990.19
3350	998.8
3400	1008.21
3450	1017.47
3500	1026.13
3550	1034.8
3600	1044.2
3650	1052.83
3700	1060.85
3750	1069.79
3800	1078.65
3850	1086.74
3900	1096.33
3950	1104.63
4000	1112.46
4050	1121.4
4100	1130.3
4150	1138.7
4200	1146.53
4250	1153.8
4300	1161.62
4350	1170.01
4400	1177.79
4450	1186.68
4500	1195.4
4550	1203.32
4600	1211.32
4650	1219.82
4700	1228.14
4750	1235.5
4800	1243.5
4850	1250.68
4900	1258.7
4950	1266.37
5000	1274.58
5050	1282.33
5100	1289.77
5150	1297.85
5200	1306.55
5250	1313.33
5300	1321.05
5350	1328.04
5400	1335.91
5450	1343.15
5500	1350.77
5550	1358.16
5600	1365.12
5650	1371.86
5700	1379.29
5750	1387.23
5800	1393.85
5850	1401.01
5900	1407.2
5950	1415.14
6000	1422.51
6050	1429.05
6100	1435.94
6150	1443.17
6200	1450.12
6250	1458.04
6300	1464.85
6350	1471.72
6400	1478.6
6450	1485.45
6500	1491.86
6550	1499.25
6600	1505.38
6650	1511.84
6700	1518.34
6750	1525.51
6800	1531.62
6850	1537.79
6900	1543.9
6950	1550.95
7000	1558.04
7050	1564.56
7100	1571.43
7150	1577.72
7200	1583.69
7250	1590.18
7300	1596.94
7350	1603.35
7400	1609.64
7450	1615.97
7500	1621.96
7550	1627.78
7600	1633.95
7650	1640.18
7700	1646.51
7750	1652.96
7800	1659.14
7850	1665.35
7900	1671.44
7950	1678.28
8000	1685.43
8050	1691.9
8100	1697.31
8150	1703.24
8200	1709.15
8250	1715.03
8300	1721.02
8350	1728.44
8400	1733.79
8450	1740.39
8500	1746.06
8550	1751.19
8600	1757.93
8650	1763.52
8700	1769.1
8750	1774.77
8800	1781.03
8850	1786.87
8900	1793.01
8950	1799.01
9000	1805.34
9050	1810.93
9100	1817.39
9150	1822.9
9200	1827.92
9250	1833.85
9300	1839.35
9350	1845.09
9400	1850.8
9450	1857.07
9500	1862.78
9550	1868.36
9600	1874.31
9650	1879.86
9700	1885.33
9750	1891.15
9800	1896.76
9850	1902.58
9900	1907.8
9950	1913.71
10000	1920.17
10050	1926.26
10100	1931.41
10150	1936.63
10200	1942.09
10250	1948.0
10300	1954.01
10350	1959.31
10400	1965.15
10450	1970.77
10500	1976.19
10550	1982.34
10600	1988.58
10650	1994.27
10700	1999.35
10750	2004.24
10800	2010.02
10850	2015.16
10900	2020.09
10950	2025.37
11000	2030.83
11050	2036.34
11100	2041.57
11150	2046.95
11200	2052.56
11250	2057.95
11300	2063.32
11350	2069.51
11400	2074.96
11450	2080.82
11500	2085.59
11550	2091.11
11600	2096.56
11650	2102.44
11700	2107.89
11750	2113.0
11800	2118.05
11850	2123.76
11900	2128.85
11950	2134.34
12000	2139.94
12050	2144.63
12100	2150.49
12150	2155.93
12200	2161.6
12250	2166.7
12300	2172.36
12350	2177.17
12400	2182.74
12450	2188.29
12500	2193.54
12550	2198.68
12600	2203.84
12650	2208.51
12700	2213.47
12750	2218.13
12800	2223.31
12850	2227.91
12900	2232.93
12950	2238.28
13000	2243.98
13050	2248.93
13100	2254.27
13150	2260.02
13200	2264.82
13250	2270.01
13300	2274.89
13350	2280.24
13400	2285.08
13450	2290.04
13500	2295.61
13550	2301.48
13600	2306.71
13650	2312.36
13700	2317.61
13750	2322.7
13800	2327.41
13850	2332.71
13900	2337.75
13950	2343.08
14000	2348.38
14050	2353.22
14100	2358.07
14150	2363.36
14200	2367.92
14250	2373.06
14300	2377.62
14350	2382.51
14400	2387.4
14450	2392.72
14500	2397.2
14550	2401.88
14600	2407.3
14650	2411.82
14700	2416.43
14750	2420.85
14800	2425.13
14850	2429.57
14900	2434.89
14950	2439.57
15000	2444.93
15050	2449.6
15100	2454.32
15150	2459.27
15200	2463.66
15250	2468.11
15300	2473.86
15350	2478.9
15400	2484.11
15450	2488.49
15500	2493.88
15550	2498.19
15600	2503.07
15650	2507.72
15700	2512.45
15750	2517.12
15800	2521.68
15850	2526.54
15900	2531.08
15950	2535.53
16000	2540.62
16050	2545.9
16100	2550.29
16150	2554.8
16200	2558.67
16250	2563.24
16300	2567.76
16350	2572.66
16400	2577.22
16450	2581.75
16500	2586.28
16550	2590.68
16600	2594.99
16650	2599.66
16700	2603.97
16750	2608.18
16800	2612.78
16850	2617.73
16900	2623.12
16950	2627.47
17000	2632.42
17050	2637.27
17100	2642.04
17150	2646.52
17200	2651.22
17250	2655.3
17300	2660.45
17350	2664.81
17400	2668.94
17450	2673.19
17500	2677.7
17550	2681.9
17600	2686.57
17650	2691.81
17700	2696.5
17750	2701.08
17800	2706.09
17850	2710.17
17900	2714.65
17950	2719.32
18000	2723.48
18050	2728.83
18100	2733.81
18150	2738.61
18200	2743.29
18250	2747.75
18300	2752.29
18350	2756.61
18400	2761.3
18450	2765.62
18500	2770.05
18550	2774.0
18600	2778.51
18650	2783.1
18700	2786.98
18750	2791.61
18800	2795.4
18850	2799.92
18900	2804.58
18950	2808.1
19000	2812.59
19050	2817.12
19100	2821.09
19150	2824.85
19200	2829.08
19250	2833.37
19300	2837.77
19350	2841.81
19400	2846.64
19450	2850.78
19500	2855.11
19550	2859.5
19600	2864.11
19650	2868.67
19700	2872.73
19750	2876.26
19800	2880.73
19850	2884.91
19900	2889.31
19950	2893.3
20000	2897.61
20050	2901.66
20100	2906.35
20150	2910.99
20200	2915.01
20250	2919.33
20300	2923.43
20350	2927.67
20400	2931.7
20450	2936.41
20500	2940.24
20550	2944.72
20600	2948.99
20650	2953.65
20700	2957.96
20750	2962.52
20800	2966.56
20850	2970.66
20900	2974.87
20950	2979.13
21000	2983.41
21050	2987.42
21100	2992.52
21150	2996.67
21200	3000.6
21250	3004.77
21300	3009.53
21350	3013.08
21400	3017.66
21450	3021.21
21500	3025.71
21550	3029.94
21600	3034.14
21650	3038.18
21700	3041.88
21750	3046.04
21800	3050.02
21850	3054.87
21900	3059.58
21950	3064.01
22000	3068.75
22050	3072.92
22100	3077.06
22150	3081.23
22200	3085.64
22250	3089.42
22300	3093.91
22350	3098.06
22400	3101.53
22450	3105.34
22500	3109.57
22550	3113.65
22600	3118.19
22650	3122.05
22700	3125.87
22750	3129.6
22800	3133.93
22850	3137.97
22900	3141.68
22950	3145.85
23000	3150.08
23050	3154.16
23100	3157.72
23150	3161.96
23200	3165.93
23250	3170.55
23300	3174.28
23350	3178.18
23400	3181.72
23450	3185.53
23500	3189.85
23550	3194.25
23600	3198.02
23650	3202.37
23700	3206.25
23750	3210.07
23800	3214.17
23850	3218.29
23900	3222.18
23950	3225.98
24000	3230.05
24050	3234.14
24100	3237.87
24150	3241.45
24200	3245.58
24250	3248.8
24300	3252.74
24350	3256.82
24400	3260.2
24450	3264.29
24500	3268.08
24550	3271.99
24600	3275.44
24650	3279.3
24700	3283.35
24750	3287.05
24800	3290.83
24850	3294.02
24900	3297.79
24950	3301.59
