t	s(t)
50	157.34
100	259.16
150	340.86
200	410.41
250	473.25
300	531.83
350	585.31
400	636.38
450	688.33
500	736.89
550	783.35
600	828.7
650	871.76
700	911.83
750	952.92
800	991.15
850	1030.81
900	1068.44
950	1106.85
1000	1143.51
1050	1178.28
1100	1213.31
1150	1246.64
1200	1280.68
1250	1314.56
1300	1347.84
1350	1379.08
1400	1409.78
1450	1440.65
1500	1471.31
1550	1500.91
1600	1531.2
1650	1560.81
1700	1589.55
1750	1619.36
1800	1647.44
1850	1673.84
1900	1701.99
1950	1729.83
2000	1757.94
2050	1785.84
2100	1813.14
2150	1839.11
2200	1865.42
2250	1891.53
2300	1916.65
2350	1942.07
2400	1966.24
2450	1992.71
2500	2017.26
2550	2041.5
2600	2066.87
2650	2091.58
2700	2113.68
2750	2137.84
2800	2161.2
2850	2183.82
2900	2207.85
2950	2231.58
3000	2255.45
3050	2278.08
3100	2299.96
3150	2322.71
3200	2344.63
3250	2368.4
3300	2391.05
3350	2413.31
3400	2435.11
3450	2456.51
3500	2477.66
3550	2500.38
3600	2522.06
3650	2543.62
3700	2563.82
3750	2585.04
3800	2606.17
3850	2627.17
3900	2647.39
3950	2667.67
4000	2687.8
4050	2708.11
4100	2727.82
4150	2747.08
4200	2766.87
4250	2786.63
4300	2807.34
4350	2827.02
4400	2846.92
4450	2865.94
4500	2886.14
4550	2905.71
4600	2924.47
4650	2944.52
4700	2963.57
4750	2981.64
4800	3000.99
4850	3019.41
4900	3038.15
4950	3057.05
5000	3075.04
5050	3093.37
5100	3112.12
5150	3131.13
5200	3147.85
5250	3166.13
5300	3183.94
5350	3201.25
5400	3218.87
5450	3236.96
5500	3254.7
5550	3272.2
5600	3290.23
5650	3307.78
5700	3326.2
5750	3344.31
5800	3362.82
5850	3381.19
5900	3397.92
5950	3414.49
6000	3431.78
6050	3448.27
6100	3465.74
6150	3482.93
6200	3499.56
6250	3516.34
6300	3533.79
6350	3551.19
6400	3568.09
6450	3584.1
6500	3600.04
6550	3617.09
6600	3633.78
6650	3648.64
6700	3665.16
6750	3681.31
6800	3696.82
6850	3713.13
6900	3728.96
6950	3744.77
7000	3761.17
7050	3777.79
7100	3793.92
7150	3810.59
7200	3826.22
7250	3841.34
7300	3857.5
7350	3873.58
7400	3890.27
7450	3905.85
7500	3921.23
7550	3936.04
7600	3951.75
7650	3967.79
7700	3982.49
7750	3998.8
7800	4013.43
7850	4029.36
7900	4044.87
7950	4060.19
8000	4074.95
8050	4090.69
8100	4105.83
8150	4121.35
8200	4136.37
8250	4151.94
8300	4166.97
8350	4183.57
8400	4198.69
8450	4214.89
8500	4230.01
8550	4244.7
8600	4259.64
8650	4273.89
8700	4288.0
8750	4303.23
8800	4318.52
8850	4333.43
8900	4348.07
8950	4361.84
9000	4375.64
9050	4390.25
9100	4405.63
9150	4420.11
9200	4433.66
9250	4448.04
9300	4462.95
9350	4476.89
9400	4491.83
9450	4505.77
9500	4519.52
9550	4533.6
9600	4547.59
9650	4561.6
9700	4576.36
9750	4589.97
9800	4604.11
9850	4618.68
9900	4632.9
9950	4646.32
10000	4660.75
10050	4674.06
10100	4687.66
10150	4701.41
10200	4715.95
10250	4730.09
10300	4743.68
10350	4758.51
10400	4772.22
10450	4786.01
10500	4800.42
10550	4814.91
10600	4827.99
10650	4840.1
10700	4853.55
10750	4866.5
10800	4878.59
10850	4891.89
10900	4904.66
10950	4918.18
11000	4931.2
11050	4943.75
11100	4957.04
11150	4970.01
11200	4982.82
11250	4994.62
11300	5007.63
11350	5020.65
11400	5034.03
11450	5047.07
11500	5059.68
11550	5072.95
11600	5086.07
11650	5099.12
11700	5112.31
11750	5125.44
11800	5138.28
11850	5150.91
11900	5162.99
11950	5174.43
12000	5187.2
12050	5199.65
12100	5212.13
12150	5225.54
12200	5237.61
12250	5250.42
12300	5262.79
12350	5275.98
12400	5288.13
12450	5300.47
12500	5311.91
12550	5324.07
12600	5336.45
12650	5347.26
12700	5359.09
12750	5371.69
12800	5384.23
12850	5395.78
12900	5409.82
12950	5421.88
13000	5433.6
13050	5445.98
13100	5458.19
13150	5470.9
13200	5482.84
13250	5495.39
13300	5506.07
13350	5519.13
13400	5531.52
13450	5543.78
13500	5556.59
13550	5569.44
13600	5581.86
13650	5593.76
13700	5605.96
13750	5618.35
13800	5630.12
13850	5642.43
13900	5655.39
13950	5666.95
14000	5678.47
14050	5690.95
14100	5702.42
14150	5714.27
14200	5726.66
14250	5737.39
14300	5749.22
14350	5761.07
14400	5772.93
14450	5785.33
14500	5797.22
14550	5809.25
14600	5822.5
14650	5834.59
14700	5846.91
14750	5859.13
14800	5871.44
14850	5883.88
14900	5895.71
14950	5906.8
15000	5919.15
15050	5931.54
15100	5941.95
15150	5953.73
15200	5966.44
15250	5977.61
15300	5989.74
15350	6001.31
15400	6013.88
15450	6025.21
15500	6036.84
15550	6048.54
15600	6059.74
15650	6070.56
15700	6081.69
15750	6093.22
15800	6105.0
15850	6116.94
15900	6127.78
15950	6139.57
16000	6151.97
16050	6163.59
16100	6175.45
16150	6186.36
16200	6198.49
16250	6209.62
16300	6221.86
16350	6233.05
16400	6244.3
16450	6254.81
16500	6267.03
16550	6277.73
16600	6289.62
16650	6300.87
16700	6312.0
16750	6323.01
16800	6334.27
16850	6345.61
16900	6356.59
16950	6368.29
17000	6378.73
17050	6389.95
17100	6401.0
17150	6412.1
17200	6423.38
17250	6433.47
17300	6444.44
17350	6455.4
17400	6466.43
17450	6477.74
17500	6487.64
17550	6498.62
17600	6509.68
17650	6520.78
17700	6532.1
17750	6543.03
17800	6554.08
17850	6565.14
17900	6575.41
17950	6585.37
18000	6596.03
18050	6607.07
18100	6617.98
18150	6628.98
18200	6640.28
18250	6651.53
18300	6663.02
18350	6673.99
18400	6684.55
18450	6695.42
18500	6705.85
18550	6716.77
18600	6726.99
18650	6736.77
18700	6746.8
18750	6756.52
18800	6767.49
18850	6778.28
18900	6789.14
18950	6800.15
19000	6809.88
19050	6819.94
19100	6830.78
19150	6841.23
19200	6851.29
19250	6862.17
19300	6873.02
19350	6883.68
19400	6893.86
19450	6903.96
19500	6913.99
19550	6924.72
19600	6935.9
19650	6946.55
19700	6956.74
19750	6967.65
19800	6977.1
19850	6987.76
19900	6997.96
19950	7008.8
20000	7019.29
20050	7029.78
20100	7040.1
20150	7050.31
20200	7060.06
20250	7070.33
20300	7080.61
20350	7091.4
20400	7102.32
20450	7112.63
20500	7122.91
20550	7133.17
20600	7143.73
20650	7153.92
20700	7163.87
20750	7173.07
20800	7182.92
20850	7192.94
20900	7203.27
20950	7212.93
21000	7222.92
21050	7232.99
21100	7242.67
21150	7253.64
21200	7263.95
21250	7274.16
21300	7283.76
21350	7293.4
21400	7302.91
21450	7312.99
21500	7322.91
21550	7332.4
21600	7342.31
21650	7353.43
21700	7362.98
21750	7373.46
21800	7383.26
21850	7393.16
21900	7403.4
21950	7414.01
22000	7424.12
22050	7434.72
22100	7445.02
22150	7454.5
22200	7464.27
22250	7474.5
22300	7484.33
22350	7494.23
22400	7504.18
22450	7514.66
22500	7524.99
22550	7535.19
22600	7545.26
22650	7555.81
22700	7565.55
22750	7574.91
22800	7584.41
22850	7594.18
22900	7604.18
22950	7613.8
23000	7623.56
23050	7633.43
23100	7643.82
23150	7653.95
23200	7664.22
23250	7674.04
23300	7684.39
23350	7694.26
23400	7704.57
23450	7714.79
23500	7724.67
23550	7734.61
23600	7744.35
23650	7753.61
23700	7763.28
23750	7772.91
23800	7782.37
23850	7792.18
23900	7802.6
23950	7813.0
24000	7822.44
24050	7832.23
24100	7841.36
24150	7851.05
24200	7861.1
24250	7870.95
24300	7879.79
24350	7889.32
24400	7898.45
24450	7908.42
24500	7918.62
24550	7928.57
24600	7938.29
24650	7948.15
24700	7957.94
24750	7967.2
24800	7976.8
24850	7986.29
24900	7995.29
24950	8004.81
