t	s(t)
100	43.42
150	52.06
200	60.12
250	65.84
300	72.54
350	78.96
400	84.14
450	89.58
500	94.78
550	99.6
600	104.2
650	109.24
700	113.9
750	118.14
800	122.44
850	127.26
900	131.7
950	135.72
1000	140.2
1050	144.04
1100	147.28
1150	150.48
1200	154.22
1250	157.84
1300	160.82
1350	164.94
1400	168.76
1450	172.3
1500	176.36
1550	179.66
1600	182.36
1650	185.34
1700	188.78
1750	191.76
1800	194.96
1850	198.18
1900	201.22
1950	204.3
2000	207.16
2050	209.9
2100	212.6
2150	215.36
2200	218.5
2250	221.1
2300	223.72
2350	226.4
2400	228.9
2450	231.22
2500	233.8
2550	236.06
2600	238.94
2650	241.64
2700	244.46
2750	247.12
2800	249.8
2850	252.38
2900	254.98
2950	257.3
3000	259.9
3050	262.94
3100	265.1
3150	267.5
3200	269.42
3250	271.84
3300	274.44
3350	276.7
3400	278.68
3450	280.68
3500	283.76
3550	286.14
3600	288.74
3650	291.08
3700	293.22
3750	296.06
3800	298.18
3850	300.7
3900	303.18
3950	305.66
4000	307.4
4050	309.3
4100	311.32
4150	313.72
4200	315.7
4250	318.06
4300	320.0
4350	322.2
4400	324.16
4450	326.54
4500	329.22
4550	331.84
4600	333.42
4650	335.18
4700	337.62
4750	339.94
4800	342.24
4850	344.12
4900	345.94
4950	348.12
5000	350.18
5050	352.36
5100	354.02
5150	356.26
5200	358.42
5250	360.1
5300	361.7
5350	363.32
5400	365.24
5450	367.56
5500	369.18
5550	370.74
5600	372.4
5650	374.18
5700	376.1
5750	378.14
5800	379.88
5850	381.24
5900	383.04
5950	385.22
6000	387.64
6050	389.36
6100	391.26
6150	392.96
6200	395.12
6250	396.6
6300	398.62
6350	400.14
6400	401.74
6450	403.34
6500	404.98
6550	406.8
6600	408.56
6650	410.18
6700	411.8
6750	413.4
6800	415.14
6850	417.12
6900	419.34
6950	420.98
7000	422.44
7050	424.12
7100	425.94
7150	427.7
7200	429.18
7250	430.8
7300	432.46
7350	434.26
7400	436.18
7450	437.8
7500	440.06
7550	441.4
7600	443.26
7650	445.58
7700	447.3
7750	448.62
7800	450.34
7850	452.12
7900	453.56
7950	455.14
8000	456.62
8050	457.92
8100	459.3
8150	461.16
8200	462.68
8250	464.36
8300	465.92
8350	467.46
8400	469.58
8450	471.28
8500	473.02
8550	474.6
8600	476.64
8650	478.4
8700	480.58
8750	481.82
8800	483.52
8850	485.44
8900	486.86
8950	488.54
9000	489.98
9050	491.6
9100	493.4
9150	494.9
9200	496.48
9250	497.88
9300	499.44
9350	501.28
9400	503.0
9450	504.72
9500	506.06
9550	508.02
9600	509.68
9650	511.22
9700	512.62
9750	514.24
9800	515.76
9850	516.86
9900	518.28
9950	519.48
10000	520.66
10050	522.06
10100	523.46
10150	524.46
10200	526.4
10250	527.46
10300	528.94
10350	530.1
10400	531.22
10450	532.76
10500	534.24
10550	536.24
10600	537.94
10650	539.48
10700	540.98
10750	542.48
10800	544.0
10850	545.68
10900	547.02
10950	548.7
11000	550.1
11050	551.98
11100	553.34
11150	554.56
11200	555.92
11250	557.06
11300	558.34
11350	559.88
11400	561.58
11450	562.88
11500	564.74
11550	565.92
11600	567.12
11650	568.82
11700	570.66
11750	571.94
11800	574.04
11850	575.28
11900	576.58
11950	577.82
12000	579.34
12050	580.78
12100	582.48
12150	583.62
12200	585.4
12250	586.68
12300	588.02
12350	589.28
12400	590.48
12450	591.44
12500	592.92
12550	593.82
12600	595.48
12650	596.84
12700	598.08
12750	599.3
12800	600.18
12850	601.68
12900	602.9
12950	604.52
13000	605.5
13050	606.4
13100	607.68
13150	609.06
13200	609.84
13250	611.08
13300	612.68
13350	613.88
13400	615.04
13450	616.54
13500	618.06
13550	619.42
13600	620.54
13650	622.14
13700	623.14
13750	624.64
13800	625.92
13850	627.12
13900	628.06
13950	629.22
14000	630.62
14050	631.88
14100	632.96
14150	634.46
14200	635.62
14250	636.86
14300	638.22
14350	639.22
14400	640.44
14450	641.74
14500	642.96
14550	644.12
14600	645.26
14650	646.98
14700	648.42
14750	649.24
14800	650.44
14850	651.56
14900	652.94
14950	654.06
15000	655.3
15050	656.5
15100	657.92
15150	659.54
15200	660.92
15250	662.24
15300	663.4
15350	664.54
15400	665.64
15450	666.78
15500	668.04
15550	669.3
15600	670.56
15650	672.12
15700	673.44
15750	674.74
15800	675.46
15850	676.94
15900	678.38
15950	679.38
16000	680.52
16050	681.72
16100	682.72
16150	683.6
16200	684.8
16250	686.24
16300	687.32
16350	688.42
16400	689.82
16450	690.94
16500	692.22
16550	693.14
16600	694.56
16650	695.62
16700	697.08
16750	698.12
16800	699.34
16850	700.54
16900	701.7
16950	702.82
17000	704.12
17050	705.4
17100	706.78
17150	707.94
17200	708.9
17250	710.32
17300	711.34
17350	712.22
17400	713.48
17450	714.68
17500	715.78
17550	717.12
17600	718.02
17650	719.3
17700	720.86
17750	721.68
17800	722.94
17850	724.3
17900	725.48
17950	726.98
18000	727.86
18050	728.98
18100	730.16
18150	731.4
18200	732.44
18250	733.56
18300	734.54
18350	735.76
18400	736.96
18450	737.98
18500	739.1
18550	740.54
18600	741.66
18650	742.96
18700	743.92
18750	745.02
18800	746.36
18850	747.54
18900	748.98
18950	750.36
19000	751.54
19050	752.44
19100	753.52
19150	754.52
19200	755.32
19250	756.76
19300	757.96
19350	758.76
19400	759.62
19450	760.74
19500	761.74
19550	762.9
19600	764.1
19650	765.46
19700	766.46
19750	767.6
19800	768.66
19850	770.2
19900	771.1
19950	772.3
20000	773.16
20050	773.94
20100	775.24
20150	776.32
20200	777.34
20250	778.32
20300	779.42
20350	780.62
20400	781.72
20450	783.1
20500	784.44
20550	785.58
20600	786.46
20650	787.74
20700	788.6
20750	789.62
20800	790.78
20850	792.14
20900	793.32
20950	794.52
21000	795.62
21050	796.86
21100	797.84
21150	798.74
21200	799.86
21250	801.02
21300	801.88
21350	803.2
21400	803.66
21450	804.72
21500	805.8
21550	806.78
21600	807.96
21650	809.0
21700	810.3
21750	811.54
21800	812.7
21850	813.82
21900	814.6
21950	815.58
22000	816.8
22050	818.16
22100	819.08
22150	820.12
22200	821.34
22250	822.22
22300	823.56
22350	824.54
22400	825.44
22450	826.84
22500	827.6
22550	829.02
22600	830.06
22650	831.54
22700	832.66
22750	833.58
22800	834.46
22850	835.34
22900	836.88
22950	838.0
23000	839.08
23050	840.02
23100	841.2
23150	842.08
23200	843.2
23250	844.12
23300	845.42
23350	846.3
23400	847.14
23450	847.88
23500	848.9
23550	849.98
23600	851.0
23650	852.12
23700	853.36
23750	854.26
23800	855.28
23850	856.02
23900	857.36
23950	858.54
24000	859.48
24050	860.82
24100	861.86
24150	862.92
24200	863.96
24250	864.88
24300	866.06
24350	867.12
24400	868.12
24450	869.12
24500	870.26
24550	871.26
24600	872.2
24650	873.52
24700	874.56
24750	875.4
24800	876.38
24850	877.58
24900	878.7
24950	879.6
