t	s(t)
50	57.49
100	92.45
150	122.24
200	148.54
250	171.57
300	193.28
350	213.25
400	232.1
450	250.43
500	267.75
550	284.48
600	301.4
650	316.62
700	331.9
750	345.85
800	359.17
850	373.47
900	387.27
950	400.6
1000	413.43
1050	426.93
1100	439.58
1150	452.15
1200	463.86
1250	475.9
1300	487.08
1350	498.64
1400	510.04
1450	520.98
1500	532.18
1550	542.59
1600	553.33
1650	564.05
1700	574.31
1750	584.36
1800	594.35
1850	604.8
1900	615.16
1950	625.65
2000	635.27
2050	644.81
2100	654.37
2150	663.78
2200	673.45
2250	682.21
2300	691.31
2350	700.82
2400	710.01
2450	718.87
2500	727.42
2550	736.89
2600	746.08
2650	754.51
2700	763.09
2750	771.69
2800	780.32
2850	788.7
2900	797.66
2950	805.66
3000	814.3
3050	822.31
3100	830.45
3150	838.05
3200	846.27
3250	854.15
3300	862.59
3350	870.22
3400	878.03
3450	885.74
3500	892.84
3550	900.64
3600	908.39
3650	915.98
3700	923.38
3750	931.33
3800	939.27
3850	947.1
3900	954.67
3950	961.77
4000	968.7
4050	975.98
4100	983.22
4150	990.76
4200	997.3
4250	1004.3
4300	1011.5
4350	1018.62
4400	1025.28
4450	1032.28
4500	1039.22
4550	1045.96
4600	1052.78
4650	1059.44
4700	1065.92
4750	1073.13
4800	1079.65
4850	1086.23
4900	1093.29
4950	1099.62
5000	1106.33
5050	1113.28
5100	1120.16
5150	1126.66
5200	1132.93
5250	1139.39
5300	1145.69
5350	1151.6
5400	1158.31
5450	1164.52
5500	1171.21
5550	1177.59
5600	1184.12
5650	1190.45
5700	1196.44
5750	1202.66
5800	1209.03
5850	1214.77
5900	1220.73
5950	1226.44
6000	1231.68
6050	1237.74
6100	1244.22
6150	1250.38
6200	1256.41
6250	1262.13
6300	1268.0
6350	1274.04
6400	1279.59
6450	1285.59
6500	1291.58
6550	1297.35
6600	1303.3
6650	1309.09
6700	1314.67
6750	1320.79
6800	1326.34
6850	1332.07
6900	1337.58
6950	1343.62
7000	1349.64
7050	1355.31
7100	1361.07
7150	1367.03
7200	1372.39
7250	1378.13
7300	1384.09
7350	1389.95
7400	1395.58
7450	1401.35
7500	1406.65
7550	1412.39
7600	1418.33
7650	1423.9
7700	1429.52
7750	1435.18
7800	1440.77
7850	1445.95
7900	1451.4
7950	1457.21
8000	1462.89
8050	1468.36
8100	1473.98
8150	1479.1
8200	1484.42
8250	1489.48
8300	1495.08
8350	1500.35
8400	1505.43
8450	1510.79
8500	1516.33
8550	1521.63
8600	1526.89
8650	1531.97
8700	1537.3
8750	1542.58
8800	1548.09
8850	1553.34
8900	1559.11
8950	1564.48
9000	1569.79
9050	1575.11
9100	1580.79
9150	1586.26
9200	1591.44
9250	1597.13
9300	1601.76
9350	1606.73
9400	1611.62
9450	1616.75
9500	1621.86
9550	1626.91
9600	1631.98
9650	1637.06
9700	1641.67
9750	1646.7
9800	1652.04
9850	1657.29
9900	1662.36
9950	1667.71
10000	1672.43
10050	1677.48
10100	1682.33
10150	1687.56
10200	1692.17
10250	1697.33
10300	1701.85
10350	1707.11
10400	1712.43
10450	1717.72
10500	1722.41
10550	1726.78
10600	1731.42
10650	1736.33
10700	1741.0
10750	1746.07
10800	1750.8
10850	1755.7
10900	1760.16
10950	1765.04
11000	1770.03
11050	1774.83
11100	1779.59
11150	1784.32
11200	1789.27
11250	1794.11
11300	1798.86
11350	1803.35
11400	1808.17
11450	1812.61
11500	1817.87
11550	1822.62
11600	1827.18
11650	1831.9
11700	1836.59
11750	1840.81
11800	1845.05
11850	1849.93
11900	1854.26
11950	1858.89
12000	1863.29
12050	1868.02
12100	1872.59
12150	1877.08
12200	1881.43
12250	1885.98
12300	1890.56
12350	1894.83
12400	1899.42
12450	1903.67
12500	1908.57
12550	1912.89
12600	1917.2
12650	1921.39
12700	1926.26
12750	1930.84
12800	1935.55
12850	1939.7
12900	1944.71
12950	1949.41
13000	1953.98
13050	1958.4
13100	1963.1
13150	1967.24
13200	1971.96
13250	1976.5
13300	1981.06
13350	1985.99
13400	1990.69
13450	1995.26
13500	1999.79
13550	2004.24
13600	2008.05
13650	2012.92
13700	2017.28
13750	2021.25
13800	2025.61
13850	2029.81
13900	2033.83
13950	2037.79
14000	2042.01
14050	2046.35
14100	2050.8
14150	2054.65
14200	2058.95
14250	2063.0
14300	2067.43
14350	2071.52
14400	2075.77
14450	2079.63
14500	2083.52
14550	2087.78
14600	2092.26
14650	2096.65
14700	2100.87
14750	2105.15
14800	2109.26
14850	2113.29
14900	2117.82
14950	2122.26
15000	2126.09
15050	2130.64
15100	2134.86
15150	2139.2
15200	2143.13
15250	2147.7
15300	2151.71
15350	2155.9
15400	2159.92
15450	2164.23
15500	2168.2
15550	2172.23
15600	2176.64
15650	2180.77
15700	2185.61
15750	2190.07
15800	2194.49
15850	2198.79
15900	2202.92
15950	2206.62
16000	2210.81
16050	2214.81
16100	2218.96
16150	2222.76
16200	2227.05
16250	2231.22
16300	2235.33
16350	2239.32
16400	2243.44
16450	2248.08
16500	2252.05
16550	2255.9
16600	2259.69
16650	2263.94
16700	2268.17
16750	2272.47
16800	2276.52
16850	2280.37
16900	2284.66
16950	2288.75
17000	2292.88
17050	2296.64
17100	2300.84
17150	2304.7
17200	2308.79
17250	2312.51
17300	2316.08
17350	2319.94
17400	2323.94
17450	2327.97
17500	2331.83
17550	2335.94
17600	2339.71
17650	2343.33
17700	2347.4
17750	2351.53
17800	2355.61
17850	2359.33
17900	2363.24
17950	2367.05
18000	2371.16
18050	2374.79
18100	2378.4
18150	2382.21
18200	2386.1
18250	2390.08
18300	2394.08
18350	2397.86
18400	2401.58
18450	2405.0
18500	2409.03
18550	2412.83
18600	2416.51
18650	2420.0
18700	2423.9
18750	2427.63
18800	2431.52
18850	2435.17
18900	2439.14
18950	2442.76
19000	2446.51
19050	2450.18
19100	2454.0
19150	2457.93
19200	2462.2
19250	2465.84
19300	2469.25
19350	2473.29
19400	2477.06
19450	2480.75
19500	2484.45
19550	2487.98
19600	2491.7
19650	2495.26
19700	2498.9
19750	2502.51
19800	2506.31
19850	2509.73
19900	2513.37
19950	2517.33
20000	2520.9
20050	2524.34
20100	2527.83
20150	2531.8
20200	2534.98
20250	2538.73
20300	2542.18
20350	2545.97
20400	2549.62
20450	2553.46
20500	2557.72
20550	2561.33
20600	2565.24
20650	2568.58
20700	2572.16
20750	2575.7
20800	2579.23
20850	2582.59
20900	2586.21
20950	2589.85
21000	2593.65
21050	2597.08
21100	2600.79
21150	2604.53
21200	2607.83
21250	2611.71
21300	2615.23
21350	2618.93
21400	2622.33
21450	2626.07
21500	2629.56
21550	2633.58
21600	2637.15
21650	2640.69
21700	2644.09
21750	2647.65
21800	2651.22
21850	2654.79
21900	2658.53
21950	2662.13
22000	2665.52
22050	2668.7
22100	2672.5
22150	2675.87
22200	2679.14
22250	2682.37
22300	2685.88
22350	2689.21
22400	2693.03
22450	2696.65
22500	2700.09
22550	2703.6
22600	2707.26
22650	2710.97
22700	2714.68
22750	2718.08
22800	2721.55
22850	2725.36
22900	2728.81
22950	2732.27
23000	2736.07
23050	2739.2
23100	2742.76
23150	2746.41
23200	2749.95
23250	2753.37
23300	2756.71
23350	2760.35
23400	2763.8
23450	2767.46
23500	2770.89
23550	2774.21
23600	2777.57
23650	2781.06
23700	2784.93
23750	2788.34
23800	2791.66
23850	2794.87
23900	2798.44
23950	2801.69
24000	2804.85
24050	2808.61
24100	2811.99
24150	2815.55
24200	2818.72
24250	2822.13
24300	2825.25
24350	2828.77
24400	2832.16
24450	2835.77
24500	2839.26
24550	2842.59
24600	2846.02
24650	2849.06
24700	2852.48
24750	2855.73
24800	2859.18
24850	2862.34
24900	2865.79
24950	2869.17
