t	s(t)
50	44.28
100	57.62
150	67.74
200	77.68
250	87.34
300	97.12
350	105.72
400	113.68
450	121.38
500	129.18
550	137.36
600	144.06
650	150.78
700	157.4
750	163.04
800	169.78
850	175.46
900	181.32
950	186.84
1000	192.32
1050	198.86
1100	203.76
1150	209.02
1200	213.9
1250	217.86
1300	222.7
1350	227.34
1400	231.42
1450	236.64
1500	241.1
1550	245.68
1600	251.64
1650	256.62
1700	260.9
1750	265.76
1800	271.22
1850	276.66
1900	281.3
1950	285.82
2000	290.6
2050	295.14
2100	299.38
2150	303.74
2200	307.18
2250	311.34
2300	315.4
2350	320.28
2400	323.78
2450	328.46
2500	332.7
2550	336.64
2600	340.7
2650	344.54
2700	349.12
2750	352.82
2800	356.34
2850	359.98
2900	363.86
2950	367.12
3000	370.42
3050	373.88
3100	376.84
3150	380.3
3200	384.02
3250	387.82
3300	391.56
3350	395.04
3400	398.2
3450	401.64
3500	405.14
3550	408.98
3600	412.76
3650	416.58
3700	419.54
3750	423.32
3800	426.64
3850	430.24
3900	433.42
3950	437.46
4000	440.38
4050	444.02
4100	447.32
4150	450.48
4200	453.94
4250	457.08
4300	460.18
4350	463.14
4400	466.14
4450	469.02
4500	472.08
4550	474.6
4600	477.58
4650	479.98
4700	483.44
4750	486.86
4800	489.48
4850	492.6
4900	495.3
4950	497.96
5000	500.4
5050	503.74
5100	506.74
5150	509.64
5200	513.22
5250	516.06
5300	518.96
5350	521.86
5400	525.58
5450	528.0
5500	530.8
5550	533.8
5600	536.4
5650	539.68
5700	542.44
5750	545.66
5800	548.16
5850	551.0
5900	553.66
5950	555.78
6000	558.4
6050	561.5
6100	564.38
6150	567.16
6200	570.02
6250	572.4
6300	575.24
6350	578.16
6400	580.9
6450	583.62
6500	586.48
6550	589.08
6600	591.66
6650	594.32
6700	596.76
6750	598.9
6800	601.6
6850	604.04
6900	606.54
6950	608.68
7000	611.64
7050	613.82
7100	616.98
7150	619.86
7200	622.26
7250	624.28
7300	626.88
7350	629.06
7400	631.4
7450	633.4
7500	635.52
7550	638.26
7600	641.1
7650	643.22
7700	645.94
7750	648.5
7800	650.62
7850	652.8
7900	655.82
7950	658.14
8000	660.98
8050	663.36
8100	665.4
8150	668.4
8200	670.88
8250	673.46
8300	675.58
8350	677.24
8400	680.04
8450	682.74
8500	685.0
8550	687.06
8600	689.66
8650	692.08
8700	694.66
8750	696.62
8800	698.98
8850	701.08
8900	703.62
8950	706.2
9000	708.38
9050	711.48
9100	713.8
9150	715.98
9200	718.44
9250	721.16
9300	723.8
9350	725.94
9400	728.34
9450	730.64
9500	732.12
9550	734.32
9600	736.38
9650	738.54
9700	740.68
9750	742.86
9800	745.44
9850	747.84
9900	750.04
9950	751.88
10000	754.28
10050	756.38
10100	759.0
10150	761.78
10200	763.9
10250	766.16
10300	768.12
10350	770.34
10400	772.62
10450	774.52
10500	776.64
10550	779.3
10600	782.06
10650	784.66
10700	787.12
10750	789.36
10800	791.1
10850	793.06
10900	794.84
10950	797.64
11000	799.36
11050	801.68
11100	803.64
11150	805.92
11200	808.08
11250	810.56
11300	812.96
11350	814.96
11400	817.2
11450	819.36
11500	822.26
11550	825.22
11600	827.52
11650	829.56
11700	831.6
11750	833.9
11800	836.08
11850	838.16
11900	840.12
11950	842.24
12000	844.1
12050	846.02
12100	848.2
12150	850.46
12200	852.18
12250	853.82
12300	855.78
12350	858.02
12400	860.38
12450	862.74
12500	864.78
12550	866.78
12600	868.68
12650	870.84
12700	873.06
12750	874.88
12800	876.94
12850	878.78
12900	880.5
12950	882.46
13000	884.1
13050	885.88
13100	888.02
13150	889.72
13200	892.2
13250	893.98
13300	896.04
13350	897.7
13400	900.38
13450	902.84
13500	904.54
13550	906.42
13600	908.04
13650	910.4
13700	912.26
13750	914.9
13800	916.76
13850	919.02
13900	921.0
13950	923.06
14000	924.66
14050	926.48
14100	928.52
14150	930.58
14200	932.88
14250	934.98
14300	936.38
14350	937.86
14400	939.36
14450	941.02
14500	942.86
14550	944.62
14600	946.94
14650	948.62
14700	950.06
14750	951.64
14800	953.54
14850	955.32
14900	957.4
14950	959.14
15000	961.0
15050	962.9
15100	964.8
15150	966.36
15200	968.62
15250	970.26
15300	972.52
15350	974.8
15400	976.86
15450	978.56
15500	980.16
15550	981.4
15600	983.44
15650	985.48
15700	987.56
15750	989.2
15800	991.22
15850	992.92
15900	994.7
15950	996.14
16000	997.96
16050	999.86
16100	1001.78
16150	1003.8
16200	1005.18
16250	1006.78
16300	1008.1
16350	1009.88
16400	1011.62
16450	1014.1
16500	1015.82
16550	1018.12
16600	1019.82
16650	1021.8
16700	1023.9
16750	1025.44
16800	1027.46
16850	1029.14
16900	1030.84
16950	1032.58
17000	1034.0
17050	1035.42
17100	1037.46
17150	1039.18
17200	1040.94
17250	1043.42
17300	1044.52
17350	1046.42
17400	1047.84
17450	1049.72
17500	1051.72
17550	1053.26
17600	1055.08
17650	1056.78
17700	1058.04
17750	1059.54
17800	1061.26
17850	1062.88
17900	1064.84
17950	1066.46
18000	1068.1
18050	1069.74
18100	1071.2
18150	1073.2
18200	1075.16
18250	1077.06
18300	1078.54
18350	1080.78
18400	1082.8
18450	1084.62
18500	1085.96
18550	1087.88
18600	1089.68
18650	1091.46
18700	1093.52
18750	1094.94
18800	1096.24
18850	1097.62
18900	1099.06
18950	1100.8
19000	1102.54
19050	1103.92
19100	1106.02
19150	1107.48
19200	1108.94
19250	1110.54
19300	1112.8
19350	1114.34
19400	1115.98
19450	1117.74
19500	1119.52
19550	1121.38
19600	1122.76
19650	1124.16
19700	1125.98
19750	1127.82
19800	1129.46
19850	1131.08
19900	1132.68
19950	1134.76
20000	1136.12
20050	1137.7
20100	1139.44
20150	1141.06
20200	1142.68
20250	1144.38
20300	1146.3
20350	1147.78
20400	1149.18
20450	1151.18
20500	1152.44
20550	1153.6
20600	1155.24
20650	1156.62
20700	1157.76
20750	1159.26
20800	1160.82
20850	1162.54
20900	1164.4
20950	1165.88
21000	1167.42
21050	1169.18
21100	1170.8
21150	1172.02
21200	1173.56
21250	1175.14
21300	1176.58
21350	1178.24
21400	1179.9
21450	1181.56
21500	1183.2
21550	1184.72
21600	1186.24
21650	1187.56
21700	1189.58
21750	1191.18
21800	1192.72
21850	1194.12
21900	1195.68
21950	1197.28
22000	1198.7
22050	1200.5
22100	1202.16
22150	1203.76
22200	1205.34
22250	1206.56
22300	1208.3
22350	1209.8
22400	1211.42
22450	1212.86
22500	1214.48
22550	1216.0
22600	1217.6
22650	1219.02
22700	1220.26
22750	1221.5
22800	1223.08
22850	1224.7
22900	1225.86
22950	1227.34
23000	1228.84
23050	1230.22
23100	1231.74
23150	1233.0
23200	1234.28
23250	1235.98
23300	1237.78
23350	1239.06
23400	1240.88
23450	1242.56
23500	1243.76
23550	1244.74
23600	1246.16
23650	1247.92
23700	1249.18
23750	1250.52
23800	1252.1
23850	1253.22
23900	1254.98
23950	1255.96
24000	1257.7
24050	1259.5
24100	1260.94
24150	1262.62
24200	1264.28
24250	1266.12
24300	1267.44
24350	1269.16
24400	1270.38
24450	1272.04
24500	1273.08
24550	1274.78
24600	1276.18
24650	1277.92
24700	1279.22
24750	1280.78
24800	1282.44
24850	1284.36
24900	1286.12
24950	1287.66
