t	a(t)
50	9.347305999999998
100	10.902691999999996
150	11.574165999999998
200	12.003665999999996
250	12.401135999999997
300	12.941279999999997
350	13.180434
400	13.448832
450	13.648608
500	13.909224
550	14.195742000000003
600	14.422143999999998
650	14.410128
700	14.479441999999999
750	14.692832
800	14.810545999999997
850	14.943711999999996
900	14.94074
950	15.013626000000002
1000	15.124572
1050	15.234933999999996
1100	15.312395999999994
1150	15.349017999999996
1200	15.364400000000003
1250	15.458375999999998
1300	15.526826000000002
1350	15.510083999999999
1400	15.583118000000002
1450	15.705683999999998
1500	15.810250000000002
1550	15.883479999999999
1600	15.983168000000004
1650	16.062721999999997
1700	16.110932000000002
1750	16.122521999999996
1800	16.11092
1850	16.192982
1900	16.177363999999997
1950	16.160644
2000	16.222672
2050	16.250466000000003
2100	16.278425999999996
2150	16.246592000000007
2200	16.296016000000005
2250	16.354062000000003
2300	16.404156
2350	16.501365999999997
2400	16.550501999999998
2450	16.584154
2500	16.596099999999996
2550	16.678953999999997
2600	16.676918
2650	16.775882
2700	16.831998
2750	16.822170000000003
2800	16.833136000000003
2850	16.827728
2900	16.880692000000003
2950	16.963311999999995
3000	16.975356
3050	17.016636000000005
3100	17.054443999999993
3150	17.098456
3200	17.134856
3250	17.205403999999998
3300	17.252606000000004
3350	17.302965999999998
3400	17.295408000000005
3450	17.306166
3500	17.34155400000001
3550	17.388325999999996
3600	17.418001999999994
3650	17.443416
3700	17.462493999999996
3750	17.466364
3800	17.506181999999995
3850	17.525723999999997
3900	17.580006000000004
3950	17.595601999999996
4000	17.666328000000007
4050	17.703849999999992
4100	17.735322000000004
4150	17.733790000000006
4200	17.779059999999994
4250	17.749599999999997
4300	17.795842
4350	17.783511999999995
4400	17.785876000000002
4450	17.778389999999998
4500	17.779022
4550	17.782743999999997
4600	17.794936
4650	17.825082
4700	17.876962
4750	17.900524000000004
4800	17.897867999999995
4850	17.940181999999997
4900	17.953628000000002
4950	17.960736
5000	17.983362000000003
5050	18.028702000000003
5100	18.057001999999997
5150	18.072273999999997
5200	18.092132000000003
5250	18.098843999999996
5300	18.073715999999994
5350	18.119353999999998
5400	18.104573999999992
5450	18.136486
5500	18.194257999999998
5550	18.193986
5600	18.213738
5650	18.235262000000006
5700	18.274249999999995
5750	18.288124
5800	18.300232
5850	18.298088000000003
5900	18.281014000000006
5950	18.316529999999997
6000	18.350532
6050	18.341948
6100	18.362432000000002
6150	18.38119
6200	18.401444000000005
6250	18.449993999999997
6300	18.468898000000003
6350	18.474313999999996
6400	18.492432
6450	18.517101999999998
6500	18.512748000000002
6550	18.538710000000002
6600	18.548429999999996
6650	18.517324000000006
6700	18.543694000000002
6750	18.515066
6800	18.565052
6850	18.594687999999998
6900	18.586702
6950	18.591300000000004
7000	18.609742
7050	18.60553000000001
7100	18.63826999999999
7150	18.639602000000004
7200	18.612421999999995
7250	18.615925999999995
7300	18.649090000000008
7350	18.662720000000004
7400	18.70331000000001
7450	18.697509999999998
7500	18.708576
7550	18.725559999999998
7600	18.711426000000003
7650	18.741346
7700	18.766434
7750	18.773786
7800	18.798129999999993
7850	18.816563999999996
7900	18.830930000000002
7950	18.836178000000004
8000	18.857114000000006
8050	18.845452
8100	18.828162
8150	18.830908
8200	18.850608
8250	18.879915999999994
8300	18.868470000000002
8350	18.859482
8400	18.877729999999996
8450	18.857955999999998
8500	18.874740000000006
8550	18.875303999999993
8600	18.88947
8650	18.892438000000002
8700	18.901467999999998
8750	18.877728000000005
8800	18.907100000000007
8850	18.920818
8900	18.912317999999996
8950	18.934746
9000	18.945685999999995
9050	18.952033999999998
9100	18.94657799999999
9150	18.985974000000006
9200	19.01168
9250	19.019484
9300	18.994728
9350	18.998198000000006
9400	19.007839999999998
9450	19.013884
9500	19.033296000000004
9550	19.038879999999995
9600	19.062674000000005
9650	19.060465999999998
9700	19.091376000000007
9750	19.107084000000004
9800	19.10454
9850	19.123435999999998
9900	19.141984
9950	19.120967999999994
10000	19.141876000000003
10050	19.137594000000007
10100	19.163145999999994
10150	19.139729999999997
10200	19.137863999999993
10250	19.151254000000005
10300	19.145902
10350	19.152976000000002
10400	19.171995999999996
10450	19.168858000000004
10500	19.187873999999997
10550	19.171944000000003
10600	19.181548
10650	19.156264000000004
10700	19.177334000000002
10750	19.202209999999997
10800	19.180972000000008
10850	19.167118000000002
10900	19.178994
10950	19.175300000000004
11000	19.168696000000008
11050	19.18342
11100	19.158446
11150	19.175657999999995
11200	19.187534000000003
11250	19.202617999999998
11300	19.227643999999994
11350	19.235194000000003
11400	19.268166000000004
11450	19.261319999999994
11500	19.279361999999995
11550	19.284337999999998
11600	19.297683999999993
11650	19.287704000000005
11700	19.313584000000002
11750	19.328217999999996
11800	19.357310000000002
11850	19.382680000000008
11900	19.390394
11950	19.381248
12000	19.390948
12050	19.409086000000006
12100	19.42493
12150	19.445992
12200	19.449223999999994
12250	19.44192
12300	19.445612000000004
12350	19.452793999999997
12400	19.478224
12450	19.492744000000002
12500	19.493672
12550	19.486564
12600	19.470494
12650	19.468494000000003
12700	19.463988
12750	19.450663999999996
12800	19.473955999999998
12850	19.485930000000007
12900	19.493465999999998
12950	19.485431999999996
13000	19.476607999999995
13050	19.483386
13100	19.48712599999999
13150	19.478276000000005
13200	19.496556
13250	19.498628
13300	19.518438
13350	19.507908000000008
13400	19.513804000000004
13450	19.509056
13500	19.504994
13550	19.497966000000005
13600	19.484327999999994
13650	19.486345999999998
13700	19.489287999999995
13750	19.490107999999992
13800	19.505388
13850	19.521808
13900	19.482517999999995
13950	19.490308
14000	19.498943999999998
14050	19.516836
14100	19.519965999999993
14150	19.515874
14200	19.528692
14250	19.525096000000005
14300	19.522058000000005
14350	19.53096800000001
14400	19.551208
14450	19.536423999999997
14500	19.538591999999998
14550	19.55544
14600	19.543112
14650	19.547576
14700	19.528750000000006
14750	19.535338000000003
14800	19.538308000000004
14850	19.539824
14900	19.557098000000003
14950	19.559402000000006
15000	19.581146000000004
15050	19.584411999999997
15100	19.597395999999993
15150	19.612400000000004
15200	19.624496
15250	19.643486
15300	19.652362000000007
15350	19.660300000000003
15400	19.674948000000008
15450	19.686653999999997
15500	19.682415999999993
15550	19.662802000000003
15600	19.671262
15650	19.689503999999996
15700	19.702726000000002
15750	19.70557
15800	19.712653999999997
15850	19.70076
15900	19.696760000000005
15950	19.695504000000003
16000	19.691751999999997
16050	19.708634000000004
16100	19.70141
16150	19.71127
16200	19.714158
16250	19.708278000000004
16300	19.707033999999993
16350	19.70479
16400	19.719945999999997
16450	19.736235999999998
16500	19.747673999999996
16550	19.756426
16600	19.758965999999997
16650	19.763562
16700	19.762714
16750	19.776952000000005
16800	19.770568000000004
16850	19.758196000000005
16900	19.760549999999995
16950	19.762264000000005
17000	19.763648
17050	19.752582000000004
17100	19.768075999999997
17150	19.774642000000007
17200	19.783380000000008
17250	19.792310000000008
17300	19.784743999999993
17350	19.793477999999997
17400	19.765093999999998
17450	19.757338000000008
17500	19.759550000000008
17550	19.773861999999998
17600	19.77383
17650	19.774642
17700	19.791943999999997
17750	19.795378000000007
17800	19.806022
17850	19.802998
17900	19.809533999999996
17950	19.822362000000002
18000	19.82899799999999
18050	19.841364000000006
18100	19.838506
18150	19.855212
18200	19.849469999999997
18250	19.836939999999995
18300	19.839091999999994
18350	19.83995
18400	19.852442
18450	19.852548000000002
18500	19.853920000000002
18550	19.864259999999998
18600	19.865620000000003
18650	19.871936
18700	19.880400000000005
18750	19.878293999999997
18800	19.890514
18850	19.902763999999994
18900	19.916336000000005
18950	19.92398000000001
19000	19.940152
19050	19.951528000000007
19100	19.947897999999995
19150	19.949472
19200	19.946513999999993
19250	19.952158
19300	19.928378
19350	19.91632
19400	19.906870000000005
19450	19.908797999999997
19500	19.901764000000004
19550	19.908654000000002
19600	19.909391999999997
19650	19.92045
19700	19.926882
19750	19.923341999999995
19800	19.930686000000005
19850	19.934814000000003
19900	19.945479999999996
19950	19.963752000000007
20000	19.968742000000006
20050	19.977526
20100	19.981958000000006
20150	19.982226000000004
20200	19.985056
20250	19.983556000000007
20300	19.985292000000005
20350	19.983528
20400	19.994338
20450	20.004382
20500	20.018066000000005
20550	20.033059999999995
20600	20.035031999999998
20650	20.049556
20700	20.04874
20750	20.042168
20800	20.042546
20850	20.043455999999995
20900	20.053062
20950	20.060868
21000	20.051411999999996
21050	20.058242
21100	20.058624
21150	20.047202000000006
21200	20.043648
21250	20.042900000000003
21300	20.049608
21350	20.069269999999996
21400	20.082411999999998
21450	20.079168000000003
21500	20.086475999999994
21550	20.098692
21600	20.087404000000006
21650	20.102549999999997
21700	20.10032
21750	20.110478000000004
21800	20.108448000000003
21850	20.118463999999996
21900	20.123886000000006
21950	20.130498000000003
22000	20.131695999999994
22050	20.142316000000005
22100	20.149954
22150	20.164394000000005
22200	20.172052000000008
22250	20.172074
22300	20.175643999999995
22350	20.180211999999997
22400	20.180746000000003
22450	20.171532000000003
22500	20.174318
22550	20.162979999999997
22600	20.173226
22650	20.174016000000005
22700	20.188514000000005
22750	20.194655999999995
22800	20.18893
22850	20.188314000000002
22900	20.183932000000002
22950	20.19425
23000	20.192074000000005
23050	20.187906
23100	20.192054
23150	20.192330000000005
23200	20.19827
23250	20.194826000000003
23300	20.208578
23350	20.218729999999997
23400	20.211068
23450	20.217560000000002
23500	20.225538
23550	20.230031999999994
23600	20.236565999999996
23650	20.24099999999999
23700	20.23731799999999
23750	20.234254
23800	20.241747999999998
23850	20.240356
23900	20.254384
23950	20.257558000000003
24000	20.267568000000004
24050	20.266949999999998
24100	20.27615
24150	20.284460000000003
24200	20.289220000000004
24250	20.291031999999998
24300	20.295727999999997
24350	20.307772
24400	20.316135999999993
24450	20.314224000000003
24500	20.322246000000003
24550	20.326976
24600	20.329346
24650	20.338545999999997
24700	20.33709
24750	20.331819999999997
24800	20.340984
24850	20.33317
24900	20.343271999999992
24950	20.348784
